"R [A]" "MRCI1 [eV]" "MRCI2 [eV]" "MRCI3 [eV]" "MRCI4 [eV]" "MRCI5 [eV]" "MRCI6 [eV]" "MRCI7 [eV]" "MRCI8 [eV]"
0.85 -2947.1944598995983 -2935.8211085937332 -2930.780684550198 -2925.66506997696    
0.9 -2951.756507599695 -2940.3050405390454 -2935.458582048051 -2930.100750674708    
1 -2957.018288187084 -2945.534725284735 -2941.151170737356 -2937.5364469753868 -2936.6430832357255   
1.05 -2958.3004429119433 -2946.8300503253063 -2942.7139157731003 -2940.1096273402327 -2939.3725794654683 -2937.985658144485  
1.1 -2959.02079931634 -2947.579237203871 -2943.776771135649 -2941.9582444188445 -2941.408035431982 -2939.9496134466062 -2938.819540493411 
1.15 -2959.33519706574 -2947.9502319360195 -2944.525642362019 -2943.1910676037137 -2942.9194080730285 -2941.5016888939394 -2941.211737862796 
1.2 -2959.3701228926343 -2948.0859025146947 -2945.0889155401496 -2944.0485531176164 -2943.972943532413 -2943.2386603354926 -2942.5494038356983 -2942.290911899586
1.25 -2959.206979688456 -2948.1021803718418 -2945.477649381415 -2945.010783458528 -2944.9026589761243 -2944.196683794566 -2943.894765191418 -2943.3360199895988
1.3 -2958.9166531400465 -2948.092046847934 -2946.318081513383 -2945.6496825486993 -2945.5875670948217 -2945.083361694206 -2944.5941334460026 -2944.0571083805507
1.35 -2958.5432447570643 -2948.1280774575102 -2947.3387265583015 -2946.5197696601363 -2945.7311888434374 -2945.678793300247 -2945.2329753922427 -2944.6899610985083
1.4 -2958.123582442991 -2948.350261227806 -2948.010975935533 -2947.3474913489854 -2946.328195989313 -2946.1004556519333 -2945.1834506513405 -2945.047029038133
1.45 -2957.682801364405 -2948.9485990109506 -2948.155713351389 -2948.040698943493 -2947.0038930504306 -2946.3529474752054 -2945.3195021895613 -2944.8870559616007
1.5 -2957.2387930142413 -2949.486497562218 -2948.6064347529705 -2948.228716084846 -2947.5576395187863 -2946.5343141513517 -2945.53517699391 -2944.5785222680606
1.55 -2956.80349231083 -2949.9184104468154 -2949.061727669097 -2948.311084980841 -2947.977250131207 -2946.6660118661966 -2945.7132157163137 -2944.537824904053
1.6 -2956.3873103343176 -2950.2576658065523 -2949.4256719285154 -2948.4907999252437 -2948.1991781143793 -2946.763844998595 -2945.871281273979 -2945.291207779897
1.65 -2955.9954607881987 -2950.517153679762 -2949.712229698566 -2948.7370712233674 -2948.2737509453914 -2946.837759313821 -2946.0740469920183 -2945.9022342370426
1.7 -2955.6304389574943 -2950.708479726881 -2949.93337671467 -2948.947401709522 -2948.3155939091744 -2946.8942474509854 -2946.5829490796013 -2946.0989454194496
1.75 -2955.293907458507 -2950.842106729709 -2950.0998805262666 -2949.1097285718174 -2948.3493169923613 -2947.0692167279085 -2946.939031966687 -2946.2236715746135
1.8 -2954.9862091548266 -2950.9271913230345 -2950.2209222583983 -2949.228721285823 -2948.3816985537205 -2947.4818938766025 -2946.9777156873824 -2946.3616333528407
1.85 -2954.7063181768212 -2950.970732277934 -2950.302741484192 -2949.3081186973636 -2948.4170624840917 -2947.8383386752557 -2947.012753081001 -2946.91374985857
1.9 -2954.4539433625523 -2950.9817392876566 -2950.355022739519 -2949.3592625163337 -2948.466804916163 -2948.1169860924597 -2947.1988599823476 -2947.072716113447
1.95 -2954.2245295243124 -2950.96315390412 -2950.3783810019313 -2949.382857517892 -2948.5485914882806 -2948.3110577694447 -2947.429490169993 
2 -2954.021981497442 -2950.9280566454304 -2950.388302276949 -2949.3900739801375 -2948.697206528081 -2948.4251007304997 -2947.620334575401 -2947.319501706957
2.05 -2953.838206612741 -2950.874344070669 -2950.3787483557785 -2949.3787213856845 -2948.8548067708734 -2948.492925135279 -2947.768062523688 -2947.455028065233
2.1 -2953.672987179041 -2950.8088816150707 -2950.3566309330286 -2949.354549502529 -2948.997976810314 -2948.553217425618 -2947.8815394877042 -2947.5657811684996
2.15 -2953.52409730414 -2950.7352720674808 -2950.324725571101 -2949.320995129998 -2949.1215138274683 -2948.6136729843333 -2947.9671410975557 -2947.653992351237
2.2 -2953.3895641618215 -2950.656535892865 -2950.28545136311 -2949.2863033211106 -2949.2206068475057 -2948.674637396156 -2948.0311450223226 -2947.723041268841
2.25 -2953.2677006455274 -2950.575154770549 -2950.240873654019 -2949.3286061574872 -2949.221178286824 -2948.7347092741857 -2948.079143203903 -2947.775855867531
2.3 -2953.1570808781016 -2950.4931205747266 -2950.1927421365976 -2949.402357204337 -2949.172597781367 -2948.792416481895 -2948.1156037535375 -2947.8149940185417
2.35 -2953.0565293272325 -2950.411997960673 -2950.1425235050947 -2949.466186976169 -2949.1197396444427 -2948.846583486972 -2948.1438138078743 -2947.842676171794
2.4 -2952.9650609403825 -2950.332997835516 -2950.0914422723363 -2949.519725397996 -2949.06666109521 -2948.8958469984714 -2948.1660944990012 -2947.860831615272
2.45 -2952.881856654527 -2950.257026338744 -2950.040502538837 -2949.563982012613 -2949.019887426454 -2948.934900794154 -2948.1840649049855 -2947.871117522998
2.5 -2952.8062089733694 -2950.184750149563 -2949.9905179253406 -2949.600012622189 -2949.0127988577697 -2948.931346985824 -2948.198870625604 -2947.87494072415
2.55 -2952.737516525054 -2950.116634582845 -2949.9421387842144 -2949.6287886735645 -2949.0444021732 -2948.8870359484145 -2948.211330723878 -2947.8734930778774
2.7 -2952.5679296622798 -2949.9398013252894 -2949.811031556665 -2949.6796903111094 -2949.1454598560363 -2948.7420808413895 -2948.23978295964 -2947.846806861722
2.75 -2952.522029479339 -2949.8904071990887 -2949.772919275287 -2949.6870101766604 -2949.1746604051914 -2948.697965726032 -2948.247372218012 -2947.8328583000816
2.8 -2952.480736185757 -2949.8458757493713 -2949.737895487367 -2949.6902156791207 -2949.2014853994665 -2948.6566669901713 -2948.2543328931347 -2947.817301544931
2.85 -2952.44366610085 -2949.806337590838 -2949.7065370745017 -2949.688972118319 -2949.2260355210283 -2948.6183179696473 -2948.260771109452 -2947.80056381519
2.9 -2952.410446428491 -2949.77213286594 -2949.6879516909653 -2949.67403306186 -2949.2484441057163 -2948.582959481555 -2948.2667521743147 -2947.783004301287
2.95 -2952.3807261416705 -2949.7439173693238 -2949.6783542315607 -2949.6486067333444 -2949.2688444893724 -2948.5505751990568 -2948.2723141836777 -2947.764914165159
3 -2952.354178703635 -2949.7222298866322 -2949.6648628213743 -2949.6250253374837 -2949.2873781712565 -2948.5210998148013 -2948.2774789066575 -2947.746551915071
3.05 -2952.33049390447 -2949.706142509258 -2949.6477550166464 -2949.6038331022014 -2949.3041866506273 -2948.494432646623 -2948.2822626700918 -2947.728124357632
3.1 -2952.309388745655 -2949.693396691325 -2949.629232219321 -2949.584945672168 -2949.319405984466 -2948.4704321952627 -2948.28666819512 -2947.709811088057
3.15 -2952.2905992766478 -2949.682163827015 -2949.6110876604016 -2949.568194336729 -2949.3331695086135 -2948.4489460769023 -2948.290703645162 -2947.691756326745
3.2 -2952.2738860371633 -2949.6715432191168 -2949.594186662284 -2949.5533913372506 -2949.345599674352 -2948.429794696327 -2948.2943771836353 -2947.6740879672566
3.25 -2952.259023172613 -2949.6611783983426 -2949.5788339926044 -2949.5403461939604 -2949.356818932964 -2948.4127957371834 -2948.2976915316804 -2947.656906691759
3.3 -2952.245817482086 -2949.650960519107 -2949.5650786318756 -2949.528871148225 -2949.3669388511735 -2948.3977668831176 -2948.3006630161344 -2947.64029413444
3.35 -2952.234081206948 -2949.640884139131 -2949.552852551608 -2949.51878932597 -2949.376060111146 -2948.3845176543564 -2948.3033025215564 -2947.6243210449297
3.4 -2952.223651078823 -2949.6309791909503 -2949.542049627356 -2949.5099292953996 -2949.384280673908 -2948.372871176826 -2948.305620932504 -2947.60903640374
3.5 -2952.206145987712 -2949.611855021771 -2949.524198951515 -2949.4952868431583 -2949.398346244552 -2948.3537197962505 -2948.309359778328 -2947.580660359887
3.55 -2952.198820679882 -2949.602711992682 -2949.516898133941 -2949.4892431920844 -2949.4043409151127 -2948.34591012557 -2948.3108128668796 -2947.56759344748
3.6 -2952.192298108236 -2949.5938900580663 -2949.510517061555 -2949.483907037309 -2949.4097314926803 -2948.339096391986 -2948.312007447169 -2947.5552694061857
3.65 -2952.186488475169 -2949.5854055447626 -2949.5049468887737 -2949.479185860086 -2949.4145724000464 -2948.3331561442174 -2948.3129652883117 -2947.5436583034702
3.7 -2952.1813101464913 -2949.5772747796073 -2949.500081491151 -2949.475006189645 -2949.418915338864 -2948.327988700098 -2948.3136972748666 -2947.5327302067963
3.75 -2952.1766869302937 -2949.5695032048816 -2949.4958229076615 -2949.471308160915 -2949.422801126227 -2948.323498819742 -2948.314225175951 -2947.5224388567913
3.8 -2952.172556240366 -2949.5620853783043 -2949.4920895041164 -2949.468037351104 -2949.42627057923 -2948.319607590099 -2948.3145598761225 -2947.5127325518024
3.85 -2952.168863653915 -2949.5550240210164 -2949.488807809747 -2949.4651502219776 -2949.429361793827 -2948.316244261541 -2948.31471770222 -2947.503565032456
3.9 -2952.1655601904286 -2949.54830552732 -2949.4859070749226 -2949.4626032353026 -2949.4320992602743 -2948.3147313079185 -2948.3133217576 -2947.4948845971007
3.95 -2952.1626077539518 -2949.541919012655 -2949.483338319131 -2949.4603582951245 -2949.434518353388 -2948.3145789241 -2948.3108210302985 -2947.486639544082
4 -2952.1599682485303 -2949.535859034743 -2949.4810580041376 -2949.4583827477672 -2949.4366408422834 -2948.314293204441 -2948.3086686088673 -2947.478799940866
4.05 -2952.157609020488 -2949.5301174301662 -2949.4790389185473 -2949.456641218417 -2949.438491217218 -2948.31388231236 -2948.306815512793 -2947.471338576055
4.1 -2952.1555001372903 -2949.524686035505 -2949.4772565721023 -2949.4550983322583 -2949.4400966895882 -2948.3133598535546 -2948.3052209249813 -2947.4642636130693
4.15 -2952.1536035029826 -2949.5195702930378 -2949.475697359106 -2949.4537295990344 -2949.44148174965 -2948.3127475971423 -2948.303841307199 -2947.4576267535604
4.2 -2952.151889185028 -2949.5147810873245 -2949.474347673859 -2949.4525132496287 -2949.442673608799 -2948.3120645911004 -2948.302641284631 -2947.4515123528568
4.25 -2952.1503218086127 -2949.510318418364 -2949.4731775838272 -2949.451430236064 -2949.443699478432 -2948.311340767964 -2948.3015936458814 -2947.4460183719843
4.3 -2952.14887416234 -2949.506179565017 -2949.4721571564733 -2949.4504642315023 -2949.4445729642466 -2948.3105978968506 -2948.3006739006933 -2947.4412046760144
4.35 -2952.147532640512 -2949.5023590850046 -2949.4712619015418 -2949.449617957084 -2949.4453076719415 -2948.309855025737 -2948.2998630010893 -2947.437076707226
4.4 -2952.1462809162917 -2949.49883520921 -2949.470461886496 -2949.4488859705284 -2949.4459008803765 -2948.309117596903 -2948.299152783651 -2947.4335882062455
4.45 -2952.1451108262595 -2949.495594331934 -2949.4697407844997 -2949.448303646652 -2949.446319935876 -2948.3083910526266 -2948.298524200401 -2947.430665702305
4.5 -2952.1440169281364 -2949.492614684061 -2949.4690849898534 -2949.4479526196424 -2949.4464777619737 -2948.3076835563284 -2948.2979718090605 -2947.4282221189346
4.55 -2952.142993779643 -2949.489882659893 -2949.468483618 -2949.4478981968505 -2949.4463063301782 -2948.3069923868675 -2948.297482003931 -2947.4261785430876
4.6 -2952.1420359385 -2949.4873819325912 -2949.467931226659 -2949.4479961578763 -2949.4459553031684 -2948.3063202653834 -2948.2970520638723 -2947.424461503994
4.65 -2952.1411379624287 -2949.485101617598 -2949.4674196524124 -2949.448102282321 -2949.4455607379255 -2948.305667191877 -2948.2966656620474 -2947.423016578861
4.7 -2952.140299851429 -2949.483025388076 -2949.4669434529806 -2949.4481675896714 -2949.4451797783795 -2948.3050358874875 -2948.2963255195964 -2947.4217920660362
4.75 -2952.1395161632213 -2949.481145080605 -2949.466494464945 -2949.44817847423 -2949.4448178668117 -2948.304426352215 -2948.2960180308205 -2947.4207498695655
4.8 -2952.1387814555264 -2949.4794525317675 -2949.4660726883053 -2949.448134935996 -2949.444485887779 -2948.303838586059 -2948.2957431957198 -2947.4198600569134
4.9 -2952.1374508182575 -2949.4765790083397 -2949.4652808366786 -2949.447884591152 -2949.4438926793446 -2948.302731082238 -2948.2952669962883 -2947.4184423431766
4.95 -2952.1368467252637 -2949.4753817069113 -2949.464908040552 -2949.4476886691004 -2949.4436314499417 -2948.3022086234328 -2948.2950629108173 -2947.417879067277
5 -2952.136280728225 -2949.4743259047423 -2949.4645434078443 -2949.4474519299542 -2949.443389268516 -2948.3017106548846 -2948.294875152184 -2947.4173947044264
30 -2952.120032803614 -2949.4573078976214 -2949.4519907908234 -2949.4353455798296 -2949.4319305496188 -2948.2897321983214 -2948.2863253315295 -2947.408044868727
50 -2952.119189250335 -2949.451911877775 -2949.4461158504055 -2949.4314597924663 -2949.431405369674 -2948.2857321230945 -2948.2856722580227 -2947.403413489111
100 -2952.1183565816136 -2949.451797589911 -2949.445938976331 -2949.431391763976 -2949.431274754973 -2948.2856559311854 -2948.2854518457148 -2947.4019957753735
