"R [A]" "MRCI1 [eV]" "MRCI2 [eV]" "MRCI3 [eV]" "MRCI4 [eV]" "MRCI5 [eV]" "MRCI6 [eV]" "MRCI7 [eV]"
0.8 -2944.504420194201 -2926.295555303457 -2925.9349743725966 -2925.3441224445187 -2924.969685470764  
0.85 -2949.8147050951384 -2933.8791482630795 -2933.1020043961616 -2932.831161207359 -2931.847488286321  
0.9 -2953.28693638143 -2939.6598202415603 -2938.802332006517 -2938.6219476617703 -2935.6945538327514  
0.95 -2955.426837849595 -2943.8791757825925 -2942.967534148171 -2942.845033885208 -2938.240454773007  
1 -2956.609951256068 -2946.9202996416116 -2946.0002823394702 -2945.8684839424604 -2939.872809281114  
1.05 -2957.2520422430025 -2949.203920819418 -2948.306812791653 -2948.0993748769038 -2941.757470575  
1.1 -2957.301273100826 -2950.694376060282 -2949.853685420052 -2949.570670573774 -2943.186243023185  
1.15 -2957.051371802463 -2951.6776054355632 -2950.923183084389 -2950.5588687499835 -2944.2862256145727 -2940.407287359891 -2937.977532821609
1.2 -2956.62005756858 -2952.2470147835143 -2951.6195199894482 -2951.174839517801 -2945.113911928607 -2941.6121589986865 -2939.376046197331
1.25 -2956.1182685399376 -2952.4863689447498 -2952.047046396994 -2951.5171207847843 -2945.7512164309674 -2942.490254423996 -2940.971948319223
1.3 -2955.6453127066025 -2952.44589471419 -2952.287010093502 -2951.6741142134438 -2946.3047152756185 -2943.1717692815996 -2942.427771616271
1.35 -2955.247876660864 -2952.3894419518415 -2952.1713290064017 -2951.692930893847 -2946.781287503495 -2943.7996885734447 -2943.7601966742845
1.4 -2954.933655785539 -2952.3952869597233 -2951.7301696894096 -2951.6144314583776 -2947.1986749448542 -2944.9259192775107 -2944.630406237004
1.45 -2954.680951713377 -2952.335824616966 -2951.47061378771 -2951.2005624505346 -2947.569783964866 -2945.91502359321 -2945.5360559220044
1.5 -2954.4660633183753 -2952.233942428828 -2951.2861069164537 -2950.6475044305 -2947.904149436724 -2946.739768355326 -2946.3309987631114
1.55 -2954.2742120913117 -2952.1062638371873 -2951.0796159582887 -2950.1154644928133 -2948.2114640597188 -2947.4192722907574 -2946.982072231898
1.6 -2954.0980264649834 -2951.964625799347 -2950.865527578332 -2949.6332459002456 -2948.500824603567 -2947.972888144412 -2947.4920736598833
1.65 -2953.9341050148764 -2951.8172053398357 -2950.655259678388 -2949.2255457158985 -2948.769338496863 -2948.4175631737803 -2947.874845484264
1.7 -2953.780809614947 -2951.6694447378727 -2950.45891040755 -2949.1005474467734 -2948.813069931535 -2948.7663071473376 -2948.153656169844
1.75 -2953.6375661047373 -2951.5248025619035 -2950.2870731623175 -2949.3162331356807 -2949.026075297927 -2948.5709429290373 -2948.3489469173746
1.8 -2953.503171740539 -2951.3855428000825 -2950.1557672915765 -2949.5217308778883 -2949.197169672045 -2948.5374946809516 -2948.3332350572664
1.85 -2953.3773380815537 -2951.2526804374847 -2950.082190397662 -2949.695301489052 -2949.273032323232 -2948.6485579941336 -2948.1961141111788
1.9 -2953.259640630002 -2951.1268794321745 -2950.0691479755114 -2949.836523192532 -2949.2599654108253 -2948.7429162312496 -2948.1010728680203
1.95 -2953.149703868619 -2951.008395571276 -2950.092677669719 -2949.948128012496 -2949.1891858484296 -2948.8210700819886 -2948.0448677293757
2 -2953.0471849338123 -2950.8972424604867 -2950.1259898608246 -2950.033694247533 -2949.0933173788294 -2948.8871502362776 -2948.019446843139
2.05 -2952.9517545676895 -2950.793313975362 -2950.1548910846222 -2950.096862782439 -2948.991296412571 -2948.944653358516 -2948.017786947977
2.1 -2952.863105281475 -2950.696468616642 -2950.1741540319217 -2950.141037762868 -2948.9963822225022 -2948.8922605364655 -2948.034282496293
2.15 -2952.7809431920905 -2950.6065975387423 -2950.182556911037 -2950.16928047088 -2949.0445599992977 -2948.8006969097282 -2948.0644272808927
2.2 -2952.7050179546923 -2950.5236762514073 -2950.184287555829 -2950.180420816443 -2949.0908901222974 -2948.7190082986363 -2948.104319187575
2.25 -2952.635100993553 -2950.447789109963 -2950.188418245757 -2950.168567532302 -2949.1365644506513 -2948.6486124169255 -2948.150284677867
2.3 -2952.570993665481 -2950.379066729113 -2950.1837052319524 -2950.1479412940585 -2949.1822387790053 -2948.5902929528042 -2948.198734568623
2.4 -2952.4594704797046 -2950.2627434530646 -2950.1545182884956 -2950.084892489295 -2949.273565666596 -2948.5100220554486 -2948.290107715587
2.45 -2952.4116518933383 -2950.213760218945 -2950.1328253635247 -2950.0456346081414 -2949.3181406545473 -2948.4863100448874 -2948.3282716986178
2.5 -2952.3688184347375 -2950.169204278971 -2950.107916051535 -2950.003859672848 -2949.3608897578206 -2948.4711941143537 -2948.3599185522817
2.55 -2952.3306925476613 -2950.1277939763863 -2950.080696492016 -2949.9614180583512 -2949.4009857499736 -2948.462407554553 -2948.3851081416515
2.6 -2952.296969464475 -2950.0886041237227 -2950.051928604059 -2949.9196784978735 -2949.437770115222 -2948.457765290378 -2948.404485376814
2.65 -2952.2673335329823 -2950.0510932141988 -2950.0222436920535 -2949.8795226406487 -2949.470804750087 -2948.455479533106 -2948.4189319070038
2.7 -2952.241455495291 -2950.0150027395516 -2949.9921614936648 -2949.841464782063 -2949.4998610788425 -2948.4542740682587 -2948.4293402660123
2.75 -2952.2190142569275 -2949.9802510655923 -2949.9620983432537 -2949.805757988101 -2949.524887399836 -2948.453351601931 -2948.436494142047
2.8 -2952.199696886836 -2949.9468300289022 -2949.93239982555 -2949.7725219889044 -2949.545973510674 -2948.452254982668 -2948.4410411663353
2.85 -2952.183195896241 -2949.9147750042966 -2949.9033298910963 -2949.7417731113114 -2949.5633153334084 -2948.4507665193014 -2948.4435037976823
2.9 -2952.1692146809246 -2949.8841240877296 -2949.8750980676427 -2949.713481422786 -2949.577182260861 -2948.448790971944 -2948.4442983704485
2.95 -2952.1574729635076 -2949.8549099328766 -2949.8478621812865 -2949.687581615978 -2949.5878790606675 -2948.4463201771787 -2948.4437568636663
3 -2952.146909499542 -2949.823829076251 -2949.818520132872 -2949.6593144177095 -2949.592951264901 -2948.437002995154 -2948.435721338398
3.05 -2952.139080780884 -2949.7975374253388 -2949.793586330625 -2949.638051432797 -2949.5984915051467 -2948.4332831973074 -2948.432951218275
3.1 -2952.1327459678714 -2949.7727043052582 -2949.76990153146 -2949.6188320237316 -2949.6018711605425 -2948.4295253035057 -2948.42921781473
3.15 -2952.127687369337 -2949.749310668031 -2949.747490225632 -2949.603389556445 -2949.6015065278348 -2948.4255932567694 -2948.4248721547724
3.2 -2952.123711784366 -2949.727326581122 -2949.726355134281 -2949.6033215279544 -2949.585917119009 -2948.421288413906 -2948.4203006402277
3.25 -2952.1206423388862 -2949.7067085062968 -2949.7064880939884 -2949.6019201410554 -2949.5719168557157 -2948.416711457082 -2948.4155685784463
3.3 -2952.118329370218 -2949.6878673356373 -2949.687412905322 -2949.5994058080555 -2949.5593587964154 -2948.411949462765 -2948.4107222288008
3.35 -2952.1166395425203 -2949.6704629266915 -2949.6693880765456 -2949.5959826144267 -2949.548101441849 -2948.4070704594437 -2948.4058105718045
3.4 -2952.115458567929 -2949.6542394923367 -2949.6525795971747 -2949.5918192708227 -2949.5380223407333 -2948.4021343121913 -2948.400874424552
3.45 -2952.1146884854197 -2949.6391562154786 -2949.636922159859 -2949.5870627187846 -2949.5289935995074 -2948.39719000152 -2948.3959518829975
3.5 -2952.114247660803 -2949.625172279023 -2949.6223613418056 -2949.581832688454 -2949.5209063725865 -2948.3922729022447 -2948.391072879677
3.55 -2952.1140626233096 -2949.612249587015 -2949.6088318356647 -2949.576232583137 -2949.513659977805 -2948.3874211103202 -2948.3862673471253
3.6 -2952.114078950147 -2949.6003500435004 -2949.5962737763643 -2949.5703440370207 -2949.507164617556 -2948.3826591160027 -2948.381554333321
3.65 -2952.1142449396634 -2949.589438273664 -2949.5846272988338 -2949.5642269151776 -2949.5013359365116 -2948.3780059672695 -2948.3769528862404
3.7 -2952.119654565208 -2949.5854899000906 -2949.576009449689 -2949.5637752060024 -2949.5037876833 -2948.374604542757 -2948.373570509705
3.75 -2952.1200191979156 -2949.577201308838 -2949.565933069713 -2949.5565723494547 -2949.4990801117747 -2948.370307863313 -2948.3693255319135
3.8 -2952.1204273688572 -2949.5697100114917 -2949.556599560851 -2949.5493368392317 -2949.494832412843 -2948.3661581254078 -2948.3652302168007
3.85 -2952.120865472334 -2949.5628554608143 -2949.5479572214495 -2949.542221059152 -2949.490998327133 -2948.3621662135997 -2948.3612872855056
3.9 -2952.1213117392304 -2949.556507042104 -2949.539959792136 -2949.5353447393572 -2949.4875315952695 -2948.3583321278893 -2948.3574994591686
3.95 -2952.121752563847 -2949.550564073196 -2949.5325610135365 -2949.5287813506175 -2949.4843886790204 -2948.3546613105555 -2948.3538749012077
4 -2952.122185225045 -2949.544969410158 -2949.5257146262775 -2949.5225744311674 -2949.481539645849 -2948.3511510404583 -2948.350408169345
4.05 -2952.1225933959868 -2949.5396795147562 -2949.519382534405 -2949.5167348655646 -2949.4789463998 -2948.3478013175986 -2948.3470992635794
4.1 -2952.1229770766718 -2949.5346698967337 -2949.5135211996853 -2949.511268096088 -2949.4765844506187 -2948.344609420836 -2948.3439454627714
4.15 -2952.123330824821 -2949.5299160658356 -2949.508097968442 -2949.50616051704 -2949.4744293080475 -2948.3415726290314 -2948.3409440457813
4.2 -2952.123654640435 -2949.525409858641 -2949.5030801870016 -2949.501401243862 -2949.4724592029697 -2948.338685499905 -2948.33809229147
4.25 -2952.1239430812334 -2949.521140390593 -2949.4984324805473 -2949.4969657862976 -2949.4706550874084 -2948.3359480334575 -2948.3353874786976
4.3 -2952.1241988683564 -2949.5170967771323 -2949.4941303588243 -2949.492840538649 -2949.468997913386 -2948.3333493451296 -2948.3328187229063
4.35 -2952.124419280665 -2949.5132681337013 -2949.490146610435 -2949.4890037317987 -2949.467471354065 -2948.330889434922 -2948.3303860240944
4.4 -2952.1246097604376 -2949.50964901802 -2949.486454023984 -2949.48543631777 -2949.466067246026 -2948.3285601394164 -2948.328081218845
4.45 -2952.1247648653953 -2949.5062312666696 -2949.483030830355 -2949.4821192485856 -2949.464769262432 -2948.3263560163323 -2948.3258988648777
4.5 -2952.1248927589572 -2949.5030012739526 -2949.47985526043 -2949.479033476268 -2949.4635692398642 -2948.3242689022513 -2948.3238362410534
4.55 -2952.124990719983 -2949.4999590398684 -2949.476910987372 -2949.4761653951186 -2949.462456293764 -2948.322298797174 -2948.321885183953
4.6 -2952.1250587484733 -2949.49708823758 -2949.4741789632035 -2949.4734959571615 -2949.461422260712 -2948.3204375376804 -2948.3200402512975
4.65 -2952.1251050078467 -2949.4943861459474 -2949.471642861087 -2949.4710115566972 -2949.4604562561503 -2948.3186796814925 -2948.3182987219466
4.7 -2952.125126776964 -2949.491841880412 -2949.469291796464 -2949.468701309169 -2949.4595555589394 -2948.31702250747 -2948.3166551536224
4.75 -2952.125126776964 -2949.4894472775554 -2949.467106721357 -2949.466548887737 -2949.4587120056603 -2948.3154551310545 -2948.3151041040446
4.8 -2952.1251050078467 -2949.487196895098 -2949.4650821934874 -2949.4645434078443 -2949.4579201540337 -2948.3139775522463 -2948.3136374097953
4.85 -2952.125066911892 -2949.4850798484813 -2949.4632018860166 -2949.4626739849323 -2949.4571691195015 -2948.3125816076263 -2948.3122577920126
4.9 -2952.1250124891 -2949.4830906954267 -2949.461465798946 -2949.4609297344423 -2949.456456180924 -2948.3112672971947 -2948.3109543661394
4.95 -2952.12494173947 -2949.481221272514 -2949.459865768855 -2949.4593052140954 -2949.455770453742 -2948.3100264575323 -2948.309724411036
5 -2952.124860105282 -2949.4794634163263 -2949.4584017957445 -2949.457789539332 -2949.4550983322583 -2948.3088563675005 -2948.3085624844225
30 -2952.1103210563456 -2949.439484433176 -2949.43582722154 -2949.4299522811225 -2949.4299522811225 -2948.2816449714 -2948.2816449714
