"R [A]" "MRCI1 [eV]" "MRCI2 [eV]" "MRCI3 [eV]" "MRCI4 [eV]" "MRCI5 [eV]" "MRCI6 [eV]" "MRCI7 [eV]" "MRCI8 [eV]"
0.75 -2936.6817587930027 -2918.137687598262 -2915.3306715433096 -2914.8445426731228 -2914.360000227329   
0.8 -2944.504420194201 -2926.295555303457 -2925.9349743725966 -2925.3441224445187 -2924.969685470764   
0.85 -2949.8147050951384 -2933.8791482630795 -2933.1020043961616 -2932.831161207359 -2931.847488286321   
0.9 -2953.28693638143 -2939.6598202415603 -2938.802332006517 -2938.6219476617703 -2935.6945538327514   
0.95 -2955.421093523878 -2943.874623316025 -2942.964157213915 -2942.842214784572    
1 -2956.6213392253358 -2946.927390931435 -2946.0078389441674 -2945.8802392655753 -2939.95642445905 -2939.3892410033004  
1.05 -2957.2520422430025 -2949.203920819418 -2948.306812791653 -2948.0993748769038 -2941.757470575   
1.1 -2957.3032323213456 -2950.698041435337 -2949.856746702113 -2949.5739468258644 -2943.2007603030042 -2938.7723967496677  
1.15 -2957.051371802463 -2951.6776054355632 -2950.923183084389 -2950.5588687499835 -2944.2862256145727 -2940.407287359891 -2937.977532821609 
1.2 -2956.6218997800956 -2952.249213464319 -2951.6221567737302 -2951.176725267551 -2945.1179473786488 -2941.6172801834323 -2939.381292554499 -2939.0637981482237
1.25 -2956.120932535616 -2952.4888261338174 -2952.049718556091 -2951.520960312774 -2945.758337653326 -2942.4963824303973 -2940.9804328325267 -2940.2668275755022
1.3 -2955.6478270396024 -2952.4482348942547 -2952.289431907755 -2951.677398628953 -2946.3096704708482 -2943.1808170708027 -2942.435292846153 -2941.611315445407
1.35 -2955.250293032838 -2952.3917902953244 -2952.1737317726775 -2951.6957853692975 -2946.7857855472703 -2943.815580028767 -2943.7662838635924 -2942.8370201290563
1.4 -2954.936132022584 -2952.397880205772 -2951.7328364062278 -2951.617128107731 -2947.2034831985447 -2944.9300989479516 -2944.638243119081 -2943.5754122467883
1.45 -2954.683640199312 -2952.3385974582284 -2951.473272341109 -2951.203425089404 -2947.5745677283003 -2945.9181039232485 -2945.539702249082 -2943.9733517033546
1.5 -2954.4690837833423 -2952.236845884792 -2951.2887056047816 -2950.6504242133014 -2947.9086665284763 -2946.7422881306043 -2946.3335756823217 -2944.2694416254585
1.55 -2954.27764344836 -2952.1093033501315 -2951.0821847140805 -2950.1183489007994 -2948.2156518935785 -2947.4214546447247 -2946.984257307005 -2944.542007295634
1.6 -2954.1019149734857 -2951.9678231383887 -2950.8681208243806 -2949.636026904927 -2948.5046586892777 -2947.974839201512 -2947.494136283708 -2944.8123225833515
1.65 -2953.9384561171128 -2951.820584995231 -2950.6579372797646 -2949.2281117505504 -2948.7728977474726 -2948.419337356806 -2947.8769462040427 -2945.077094909684
1.7 -2953.785596099521 -2951.6730339210185 -2950.4617022967896 -2949.103088991169 -2948.8162101266453 -2948.767937109964 -2948.1558766197654 -2945.325554004054
1.75 -2953.6426736837852 -2951.528636647614 -2950.2899602914435 -2949.318771958937 -2949.027607299527 -2948.573835500443 -2948.351336077952 -2945.553337879667
1.8 -2953.503171740539 -2951.3855428000825 -2950.1557672915765 -2949.5217308778883 -2949.197169672045 -2948.5374946809516 -2948.3332350572664 
1.85 -2953.379191177628 -2951.2564138410294 -2950.0892191012745 -2949.699236256928 -2949.2772990701405 -2948.6528410678798 -2948.200125070964 -2946.1831157098663
1.9 -2953.2617386286415 -2951.1309148822165 -2950.07557802841 -2949.8405069409205 -2949.2653723152303 -2948.7471122285287 -2948.1053287303703 -2946.479768907869
1.95 -2953.1520440486834 -2951.012659597045 -2950.098664176861 -2949.9522070007715 -2949.195724746912 -2948.8252987329424 -2948.049485503294 -2946.7325083548462
2 -2953.0497727375814 -2950.90168608147 -2950.1318076573107 -2950.0379092927883 -2949.1008739835265 -2948.891471405979 -2948.0246142872584 -2946.9462212175363
2.05 -2952.954589995163 -2950.7978827687675 -2950.1607442559234 -2950.10125198063 -2948.9998652812033 -2948.9490969794997 -2948.0236591672556 -2947.125133425754
2.1 -2952.8661828903737 -2950.7011054385375 -2950.1801840772973 -2950.145639209948 -2949.000964621606 -2948.9019668414544 -2948.0409329615 -2947.2728777008792
2.15 -2952.7842520978566 -2950.6112452451966 -2950.188850906955 -2950.174121378246 -2949.0492648496834 -2948.8117773902204 -2948.0717716367 -2947.392545257508
2.2 -2952.7085336670684 -2950.5282776984877 -2950.1893978560165 -2950.187025022277 -2949.0956738857317 -2948.731770443407 -2948.1120907623012 -2947.486778322202
2.25 -2952.6387908588645 -2950.4523034805766 -2950.1938169867435 -2950.175479226911 -2949.1413373295272 -2948.663339224495 -2948.1580671371516 -2947.557914353887
2.3 -2952.574811424354 -2950.3834913021187 -2950.1894087405753 -2950.1551060546517 -2949.1868810431797 -2948.607093268756 -2948.2060762032906 -2947.6082091772987
2.35 -2952.516383114648 -2950.3219146338843 -2950.1779282525604 -2950.126879673477 -2949.2324084299944 -2948.5628910769315 -2948.252879804583 -2947.640079164411
2.4 -2952.4633018442755 -2950.2672224488624 -2950.1608639860665 -2950.0920953458426 -2949.2775847897997 -2948.5297856924362 -2948.2958819738396 -2947.6562835507884
2.45 -2952.415344479789 -2950.2184569059123 -2950.1394921555693 -2950.052535418192 -2949.3217597702287 -2948.5061580372026 -2948.3333683931073 -2947.659908108749
2.5 -2952.372277003182 -2950.174230223831 -2950.1148876112156 -2950.0102842834676 -2949.364130635096 -2948.4900053524775 -2948.364577143294 -2947.654136571636
2.55 -2952.3338463484697 -2950.133211765349 -2950.0879619347747 -2949.9672412971167 -2949.4039109750543 -2948.4793112738103 -2948.389535435797 -2947.641940423904
2.6 -2952.2997858439708 -2950.0944436893255 -2950.059471603058 -2949.9248350574344 -2949.4404504377376 -2948.472328829571 -2948.4088065465153 -2947.625831277413
2.65 -2952.269809770027 -2950.0573708832794 -2950.0300533627346 -2949.884004357586 -2949.4732945928304 -2948.467686565396 -2948.423195932773 -2947.607773794961
2.7 -2952.24362424356 -2950.0217293966675 -2950.000229672609 -2949.845296146634 -2949.5022012589075 -2948.464388544189 -2948.433549868989 -2947.589180248006
2.75 -2952.220919054654 -2949.9874131050456 -2949.9704168670414 -2949.8090124710743 -2949.5271105708975 -2948.461757202186 -2948.440638437673 -2947.5710139199696
2.8 -2952.201386714534 -2949.9544111238556 -2949.9409550884843 -2949.775286666748 -2949.5481096052677 -2948.4593462724915 -2948.4451147123314 -2947.553873461566
2.85 -2952.184717013283 -2949.9227425010745 -2949.912102845199 -2949.7441432239116 -2949.5653888417914 -2948.456886362284 -2948.447509315188 -2947.5380826884093
2.9 -2952.1706051832657 -2949.892439890378 -2949.884064222658 -2949.715541325471 -2949.57921223101 -2948.454216924327 -2948.4482467440225 -2947.52377493634
2.95 -2952.1587655048224 -2949.8635332243007 -2949.8569916046777 -2949.6893993372373 -2949.5898872617 -2948.4512508821517 -2948.4476616990064 -2947.510942041939
3 -2952.155949125326 -2949.827358394325 -2949.8221256428546 -2949.6635212995466 -2949.5970574645726 -2948.440581293741 -2948.439585356644 -2946.6609614310805
3.05 -2952.148218367694 -2949.8010857913905 -2949.797216330865 -2949.6423535545205 -2949.602458926698 -2948.436899591849 -2948.436771698287 -2946.6517286043836
3.1 -2952.14196791001 -2949.7762717192873 -2949.7735587430957 -2949.6232212219224 -2949.605740621068 -2948.43333217782 -2948.4328723052263 -2946.6428413624176
3.15 -2952.136985503384 -2949.7528998511766 -2949.751174648664 -2949.60719370962 -2949.6059719179348 -2948.4294082945025 -2948.428562020084 -2946.634354127974
3.2 -2952.1330725046246 -2949.7309375333843 -2949.7300640475696 -2949.607084864035 -2949.590453258739 -2948.425122499617 -2948.424025880354 -2946.6263049970075
3.25 -2952.130057481937 -2949.710343948816 -2949.7102214975334 -2949.605664429159 -2949.5765128605167 -2948.4205700330494 -2948.4193264722476 -2946.6187075752164
3.3 -2952.1277934937816 -2949.691622508299 -2949.6910728380976 -2949.60314465388 -2949.564009224009 -2948.4158352501277 -2948.4145100551377 -2946.611572747159
3.4 -2952.1250016045415 -2949.6580354820926 -2949.656288510463 -2949.5955771646245 -2949.5427652870735 -2948.406079964626 -2948.4047275582398 -2946.59865821857
3.45 -2952.1242614545677 -2949.6429685320722 -2949.6406582845434 -2949.590836939424 -2949.533774641802 -2948.4011655864906 -2948.3998376703607 -2946.5928540277814
3.5 -2952.1238451202075 -2949.6290036435935 -2949.626121956747 -2949.58563139935 -2949.5257227896964 -2948.3962811408906 -2948.3949885995753 -2946.5874607290743
3.55 -2952.123681851831 -2949.6160945572838 -2949.612619662002 -2949.580055784289 -2949.518503606311 -2948.391456560362 -2948.39021299956 -2946.5824565533317
3.6 -2952.123714505506 -2949.604208619467 -2949.6000860929585 -2949.5741917284295 -2949.5120327363184 -2948.3867217774405 -2948.385529918291 -2946.577819731436
3.65 -2952.12389410072 -2949.5933077341897 -2949.5884641056837 -2949.568104539122 -2949.5062231032507 -2948.382093118964 -2948.380955682607 -2946.5735257731317
3.7 -2952.1233172191232 -2949.588608326083 -2949.578270716705 -2949.5667276424792 -2949.508900704627 -2948.3764222640166 -2948.3753474138707 -2947.4351174867065
3.95 -2952.125415217762 -2949.554289313322 -2949.5347488097827 -2949.5310752713094 -2949.48920509613 -2948.3563701862304 -2948.3555620077664 -2947.438078086602
4 -2952.12584787896 -2949.548740909657 -2949.527896980245 -2949.524816650206 -2949.4863016401664 -2948.3528463104353 -2948.3520816702053 -2947.4377950880826
4.05 -2952.126258771041 -2949.54348638907 -2949.5215621672323 -2949.5189444309276 -2949.4836566924655 -2948.3494829818774 -2948.348764601021 -2947.4373379366284
4.2 -2952.1273309000476 -2949.529284761446 -2949.505281588946 -2949.5035699921314 -2949.477022554096 -2948.3403508373463 -2948.339746744353 -2947.4352290534307
4.3 -2952.1278832913886 -2949.520993449054 -2949.496364414444 -2949.495017450337 -2949.4734633034864 -2948.335017403711 -2948.3344758969283 -2947.4334630338235
4.35 -2952.128109145976 -2949.5171756901814 -2949.492399714032 -2949.491191528045 -2949.4718932059313 -2948.332560214643 -2948.332048640396 -2947.4325296829375
4.4 -2952.1283023468886 -2949.5135647379184 -2949.488728896698 -2949.487634998575 -2949.470442838519 -2948.330236361416 -2948.3297519985654 -2947.4315772840737
4.45 -2952.1284628941257 -2949.510149707708 -2949.4853301933254 -2949.484334256228 -2949.469101316691 -2948.3280431228904 -2948.3275805291564 -2947.4306167217915
4.5 -2952.1285935088267 -2949.50692787841 -2949.4821818347964 -2949.4812675318876 -2949.46785503475 -2948.325966893368 -2948.325528789891 -2947.4296588806487
4.55 -2952.128696912132 -2949.5038883654656 -2949.4792647731347 -2949.478415777576 -2949.4666985504155 -2948.3240103939884 -2948.3235913384883 -2947.428711924065
4.6 -2952.1287431715054 -2949.5010202843164 -2949.4765654026414 -2949.4757327339207 -2949.465596488874 -2948.3222008361477 -2948.3217219155763 -2947.42776768862
4.65 -2952.1287839885995 -2949.4983181926837 -2949.4740619542004 -2949.473256496876 -2949.4645842249383 -2948.320467470216 -2948.3199831073657 -2947.4268479434318
4.7 -2952.128822084554 -2949.495779369428 -2949.4717435432526 -2949.470978903022 -2949.463648152913 -2948.318807575054 -2948.3183667504372 -2947.4259554096398
4.75 -2952.128830247973 -2949.49338748771 -2949.4695965641004 -2949.468850971847 -2949.4627610614 -2948.3172483620574 -2948.3168374699762 -2947.4250846449645
4.8 -2952.128737729226 -2949.491128941834 -2949.4676074110457 -2949.466772021185 -2949.461860364189 -2948.3158660231356 -2948.315289141538 -2947.4242166014287
4.85 -2952.128696912132 -2949.4890118952176 -2949.4657733629483 -2949.464916203971 -2949.4610467434454 -2948.3144864053534 -2948.3139122448956 -2947.4233975384063
4.9 -2952.128609835664 -2949.487020021023 -2949.4640835352507 -2949.463163790062 -2949.4602304015625 -2948.3132020274575 -2948.312589771045 -2947.4225948022213
4.95 -2952.1285309226155 -2949.485150598111 -2949.4625624182086 -2949.461547433134 -2949.4594222230985 -2948.3119720723535 -2948.311354373662 -2947.4218274408513
5 -2952.12843024045 -2949.483392741923 -2949.461220896381 -2949.460050806348 -2949.458567785261 -2948.3108155880195 -2948.3101870047694 -2947.4210872908775
30 -2952.1200409670328 -2949.4434926718213 -2949.4406926191627 -2949.4335496276867 -2949.4335496276867 -2948.2852804139193 -2948.2852804139193 -2946.512681091452
